FFT of Input Signal
Freq (Hz),Mag (Normalized for N)
0,66.5234
4.88281,66.5331
9.76562,66.5622
14.6484,66.6108
19.5312,66.6789
24.4141,66.7666
29.2969,66.874
34.1797,67.0012
39.0625,67.1485
43.9453,67.316
48.8281,67.504
53.7109,67.7126
58.5938,67.9422
63.4766,68.1931
68.3594,68.4656
73.2422,68.7601
78.125,69.077
83.0078,69.4168
87.8906,69.7799
92.7734,70.1669
97.6562,70.5783
102.539,71.0147
107.422,71.4769
112.305,71.9654
117.188,72.4811
122.07,73.0248
126.953,73.5973
131.836,74.1996
136.719,74.8327
141.602,75.4977
146.484,76.1957
151.367,76.928
156.25,77.6959
161.133,78.5009
166.016,79.3444
170.898,80.2282
175.781,81.1539
180.664,82.1236
185.547,83.1393
190.43,84.2032
195.312,85.3178
200.195,86.4855
205.078,87.7093
209.961,88.9921
214.844,90.3373
219.727,91.7484
224.609,93.2293
229.492,94.7844
234.375,96.4182
239.258,98.1357
244.141,99.9427
249.023,101.845
253.906,103.85
258.789,105.964
263.672,108.196
268.555,110.554
273.438,113.05
278.32,115.694
283.203,118.499
288.086,121.478
292.969,124.648
297.852,128.028
302.734,131.636
307.617,135.497
312.5,139.637
317.383,144.087
322.266,148.882
327.148,154.064
332.031,159.682
336.914,165.793
341.797,172.465
346.68,179.779
351.562,187.837
356.445,196.758
361.328,206.695
366.211,217.835
371.094,230.421
375.977,244.765
380.859,261.28
385.742,280.525
390.625,303.272
395.508,330.631
400.391,364.247
405.273,406.682
410.156,462.158
415.039,538.179
419.922,649.523
424.805,829.924
429.688,1176.95
434.57,2139.11
439.453,20184.4
444.336,2400.06
449.219,1055.03
454.102,640.094
458.984,442.027
463.867,336.543
468.75,291.897
473.633,302.425
478.516,369.587
483.398,507.009
488.281,773.447
493.164,1423.39
498.047,5303.89
502.93,3731.71
507.812,1465.42
512.695,938.176
517.578,701.077
522.461,565.153
527.344,476.399
532.227,413.519
537.109,366.412
541.992,329.66
546.875,300.091
551.758,275.723
556.641,255.251
561.523,237.778
566.406,222.667
571.289,209.454
576.172,197.789
581.055,187.407
585.938,178.1
590.82,169.704
595.703,162.086
600.586,155.141
605.469,148.78
610.352,142.93
615.234,137.53
620.117,132.529
625,127.883
629.883,123.554
634.766,119.511
639.648,115.724
644.531,112.17
649.414,108.828
654.297,105.678
659.18,102.704
664.062,99.8917
668.945,97.2271
673.828,94.6989
678.711,92.2966
683.594,90.0108
688.477,87.8329
693.359,85.7552
698.242,83.7708
703.125,81.8732
708.008,80.0568
712.891,78.3162
717.773,76.6465
722.656,75.0434
727.539,73.5028
732.422,72.0208
737.305,70.5941
742.188,69.2195
747.07,67.8939
751.953,66.6146
756.836,65.3791
761.719,64.185
766.602,63.0301
771.484,61.9123
776.367,60.8297
781.25,59.7805
786.133,58.7629
791.016,57.7755
795.898,56.8167
800.781,55.8851
805.664,54.9794
810.547,54.0984
815.43,53.2409
820.312,52.4057
825.195,51.5918
830.078,50.7983
834.961,50.0242
839.844,49.2685
844.727,48.5305
849.609,47.8092
854.492,47.104
859.375,46.4141
864.258,45.7388
869.141,45.0774
874.023,44.4291
878.906,43.7936
883.789,43.17
888.672,42.5578
893.555,41.9564
898.438,41.3654
903.32,40.7841
908.203,40.212
913.086,39.6487
917.969,39.0936
922.852,38.5463
927.734,38.0062
932.617,37.4729
937.5,36.9459
942.383,36.4247
947.266,35.9089
952.148,35.3981
957.031,34.8917
961.914,34.3892
966.797,33.8903
971.68,33.3944
976.562,32.901
981.445,32.4097
986.328,31.9198
991.211,31.431
996.094,30.9426
1000.98,30.4541
1005.86,29.9648
1010.74,29.4743
1015.62,28.9818
1020.51,28.4867
1025.39,27.9883
1030.27,27.4859
1035.16,26.9787
1040.04,26.466
1044.92,25.9469
1049.8,25.4205
1054.69,24.8861
1059.57,24.3428
1064.45,23.7898
1069.34,23.2263
1074.22,22.6516
1079.1,22.0654
1083.98,21.4675
1088.87,20.8584
1093.75,20.2394
1098.63,19.6131
1103.52,18.9841
1108.4,18.3599
1113.28,17.7528
1118.16,17.1819
1123.05,16.6768
1127.93,16.2824
1132.81,16.0649
1137.7,16.1184
1142.58,16.5703
1147.46,17.5828
1152.34,19.3526
1157.23,22.1178
1162.11,26.1906
1166.99,32.0361
1171.88,40.4367
1176.76,52.8502
1181.64,72.3202
1186.52,106.349
1191.41,179.555
1196.29,446.232
1201.17,1511.2
1206.05,311.71
1210.94,183.269
1215.82,134.139
1220.7,108.188
1225.59,92.1362
1230.47,81.2177
1235.35,73.3015
1240.23,67.2915
1245.12,62.5669
1250,58.7497
1254.88,55.5966
1259.77,52.9442
1264.65,50.6785
1269.53,48.7177
1274.41,47.0016
1279.3,45.4847
1284.18,44.1324
1289.06,42.9174
1293.95,41.8184
1298.83,40.8182
1303.71,39.9028
1308.59,39.0608
1313.48,38.2828
1318.36,37.561
1323.24,36.8887
1328.12,36.2603
1333.01,35.6711
1337.89,35.1169
1342.77,34.5943
1347.66,34.1001
1352.54,33.6318
1357.42,33.1869
1362.3,32.7634
1367.19,32.3596
1372.07,31.9737
1376.95,31.6044
1381.84,31.2504
1386.72,30.9106
1391.6,30.5839
1396.48,30.2693
1401.37,29.9662
1406.25,29.6737
1411.13,29.391
1416.02,29.1177
1420.9,28.8531
1425.78,28.5967
1430.66,28.3481
1435.55,28.1067
1440.43,27.8722
1445.31,27.6442
1450.2,27.4224
1455.08,27.2064
1459.96,26.996
1464.84,26.7909
1469.73,26.5907
1474.61,26.3954
1479.49,26.2047
1484.38,26.0183
1489.26,25.8361
1494.14,25.6579
1499.02,25.4835
1503.91,25.3127
1508.79,25.1455
1513.67,24.9817
1518.55,24.8211
1523.44,24.6636
1528.32,24.5091
1533.2,24.3576
1538.09,24.2088
1542.97,24.0627
1547.85,23.9192
1552.73,23.7782
1557.62,23.6396
1562.5,23.5033
1567.38,23.3694
1572.27,23.2376
1577.15,23.108
1582.03,22.9804
1586.91,22.8548
1591.8,22.7311
1596.68,22.6093
1601.56,22.4894
1606.45,22.3712
1611.33,22.2548
1616.21,22.14
1621.09,22.0268
1625.98,21.9153
1630.86,21.8053
1635.74,21.6968
1640.62,21.5897
1645.51,21.4841
1650.39,21.3799
1655.27,21.277
1660.16,21.1755
1665.04,21.0752
1669.92,20.9763
1674.8,20.8785
1679.69,20.782
1684.57,20.6866
1689.45,20.5924
1694.34,20.4993
1699.22,20.4073
1704.1,20.3164
1708.98,20.2265
1713.87,20.1377
1718.75,20.0499
1723.63,19.9631
1728.52,19.8772
1733.4,19.7923
1738.28,19.7083
1743.16,19.6252
1748.05,19.543
1752.93,19.4617
1757.81,19.3813
1762.7,19.3017
1767.58,19.2229
1772.46,19.1449
1777.34,19.0678
1782.23,18.9914
1787.11,18.9158
1791.99,18.8409
1796.88,18.7668
1801.76,18.6934
1806.64,18.6207
1811.52,18.5487
1816.41,18.4775
1821.29,18.4068
1826.17,18.3369
1831.05,18.2676
1835.94,18.199
1840.82,18.131
1845.7,18.0636
1850.59,17.9968
1855.47,17.9307
1860.35,17.8651
1865.23,17.8002
1870.12,17.7358
1875,17.6719
1879.88,17.6087
1884.77,17.5459
1889.65,17.4838
1894.53,17.4221
1899.41,17.361
1904.3,17.3004
1909.18,17.2403
1914.06,17.1808
1918.95,17.1217
1923.83,17.0631
1928.71,17.005
1933.59,16.9473
1938.48,16.8902
1943.36,16.8335
1948.24,16.7772
1953.12,16.7214
1958.01,16.6661
1962.89,16.6112
1967.77,16.5567
1972.66,16.5026
1977.54,16.449
1982.42,16.3958
1987.3,16.343
1992.19,16.2906
1997.07,16.2386
2001.95,16.1869
2006.84,16.1357
2011.72,16.0849
2016.6,16.0344
2021.48,15.9844
2026.37,15.9346
2031.25,15.8853
2036.13,15.8363
2041.02,15.7877
2045.9,15.7394
2050.78,15.6915
2055.66,15.6439
2060.55,15.5967
2065.43,15.5497
2070.31,15.5032
2075.2,15.4569
2080.08,15.411
2084.96,15.3654
2089.84,15.3201
2094.73,15.2751
2099.61,15.2305
2104.49,15.1861
2109.38,15.1421
2114.26,15.0983
2119.14,15.0549
2124.02,15.0117
2128.91,14.9688
2133.79,14.9262
2138.67,14.8839
2143.55,14.8419
2148.44,14.8001
2153.32,14.7587
2158.2,14.7175
2163.09,14.6765
2167.97,14.6358
2172.85,14.5954
2177.73,14.5553
2182.62,14.5154
2187.5,14.4758
2192.38,14.4364
2197.27,14.3972
2202.15,14.3583
2207.03,14.3197
2211.91,14.2813
2216.8,14.2431
2221.68,14.2052
2226.56,14.1675
2231.45,14.13
2236.33,14.0928
2241.21,14.0558
2246.09,14.019
2250.98,13.9825
2255.86,13.9461
2260.74,13.91
2265.62,13.8741
2270.51,13.8384
2275.39,13.803
2280.27,13.7677
2285.16,13.7326
2290.04,13.6978
2294.92,13.6632
2299.8,13.6287
2304.69,13.5945
2309.57,13.5604
2314.45,13.5266
2319.34,13.493
2324.22,13.4595
2329.1,13.4262
2333.98,13.3932
2338.87,13.3603
2343.75,13.3276
2348.63,13.2951
2353.52,13.2627
2358.4,13.2306
2363.28,13.1986
2368.16,13.1668
2373.05,13.1352
2377.93,13.1038
2382.81,13.0725
2387.7,13.0414
2392.58,13.0105
2397.46,12.9797
2402.34,12.9492
2407.23,12.9187
2412.11,12.8885
2416.99,12.8584
2421.88,12.8285
2426.76,12.7987
2431.64,12.7691
2436.52,12.7396
2441.41,12.7103
2446.29,12.6812
2451.17,12.6522
2456.05,12.6234
2460.94,12.5947
2465.82,12.5662
2470.7,12.5378
2475.59,12.5096
2480.47,12.4815
2485.35,12.4535
2490.23,12.4257
2495.12,12.3981
2500,12.3706
2504.88,12.3432
2509.77,12.316
2514.65,12.2889
2519.53,12.2619
2524.41,12.2351
2529.3,12.2084
2534.18,12.1818
2539.06,12.1554
2543.95,12.1291
2548.83,12.103
2553.71,12.077
2558.59,12.0511
2563.48,12.0253
2568.36,11.9997
2573.24,11.9741
2578.12,11.9488
2583.01,11.9235
2587.89,11.8983
2592.77,11.8733
2597.66,11.8484
2602.54,11.8236
2607.42,11.799
2612.3,11.7744
2617.19,11.75
2622.07,11.7257
2626.95,11.7015
2631.84,11.6775
2636.72,11.6535
2641.6,11.6296
2646.48,11.6059
2651.37,11.5823
2656.25,11.5588
2661.13,11.5354
2666.02,11.5121
2670.9,11.4889
2675.78,11.4658
2680.66,11.4429
2685.55,11.42
2690.43,11.3972
2695.31,11.3746
2700.2,11.352
2705.08,11.3296
2709.96,11.3073
2714.84,11.285
2719.73,11.2629
2724.61,11.2408
2729.49,11.2189
2734.38,11.1971
2739.26,11.1753
2744.14,11.1537
2749.02,11.1321
2753.91,11.1107
2758.79,11.0893
2763.67,11.0681
2768.55,11.0469
2773.44,11.0258
2778.32,11.0048
2783.2,10.984
2788.09,10.9632
2792.97,10.9425
2797.85,10.9218
2802.73,10.9013
2807.62,10.8809
2812.5,10.8605
2817.38,10.8403
2822.27,10.8201
2827.15,10.8
2832.03,10.78
2836.91,10.7601
2841.8,10.7403
2846.68,10.7206
2851.56,10.7009
2856.45,10.6813
2861.33,10.6619
2866.21,10.6424
2871.09,10.6231
2875.98,10.6039
2880.86,10.5847
2885.74,10.5656
2890.62,10.5466
2895.51,10.5277
2900.39,10.5089
2905.27,10.4901
2910.16,10.4714
2915.04,10.4528
2919.92,10.4343
2924.8,10.4158
2929.69,10.3975
2934.57,10.3792
2939.45,10.3609
2944.34,10.3428
2949.22,10.3247
2954.1,10.3067
2958.98,10.2888
2963.87,10.2709
2968.75,10.2531
2973.63,10.2354
2978.52,10.2178
2983.4,10.2002
2988.28,10.1827
2993.16,10.1653
2998.05,10.1479
3002.93,10.1306
3007.81,10.1134
3012.7,10.0962
3017.58,10.0791
3022.46,10.0621
3027.34,10.0452
3032.23,10.0283
3037.11,10.0115
3041.99,9.99471
3046.88,9.97803
3051.76,9.96141
3056.64,9.94485
3061.52,9.92836
3066.41,9.91193
3071.29,9.89557
3076.17,9.87927
3081.05,9.86303
3085.94,9.84686
3090.82,9.83074
3095.7,9.81469
3100.59,9.79871
3105.47,9.78278
3110.35,9.76691
3115.23,9.75111
3120.12,9.73536
3125,9.71968
3129.88,9.70405
3134.77,9.68848
3139.65,9.67297
3144.53,9.65753
3149.41,9.64213
3154.3,9.6268
3159.18,9.61153
3164.06,9.59631
3168.95,9.58114
3173.83,9.56604
3178.71,9.55099
3183.59,9.536
3188.48,9.52106
3193.36,9.50618
3198.24,9.49135
3203.12,9.47658
3208.01,9.46186
3212.89,9.4472
3217.77,9.43259
3222.66,9.41803
3227.54,9.40353
3232.42,9.38908
3237.3,9.37468
3242.19,9.36034
3247.07,9.34605
3251.95,9.33181
3256.84,9.31762
3261.72,9.30348
3266.6,9.28939
3271.48,9.27535
3276.37,9.26137
3281.25,9.24743
3286.13,9.23355
3291.02,9.21971
3295.9,9.20593
3300.78,9.19219
3305.66,9.1785
3310.55,9.16486
3315.43,9.15127
3320.31,9.13772
3325.2,9.12423
3330.08,9.11078
3334.96,9.09738
3339.84,9.08403
3344.73,9.07072
3349.61,9.05746
3354.49,9.04425
3359.38,9.03108
3364.26,9.01796
3369.14,9.00488
3374.02,8.99185
3378.91,8.97887
3383.79,8.96593
3388.67,8.95303
3393.55,8.94018
3398.44,8.92737
3403.32,8.91461
3408.2,8.90189
3413.09,8.88922
3417.97,8.87659
3422.85,8.864
3427.73,8.85145
3432.62,8.83895
3437.5,8.82649
3442.38,8.81407
3447.27,8.8017
3452.15,8.78936
3457.03,8.77707
3461.91,8.76482
3466.8,8.75261
3471.68,8.74044
3476.56,8.72831
3481.45,8.71623
3486.33,8.70418
3491.21,8.69218
3496.09,8.68021
3500.98,8.66829
3505.86,8.6564
3510.74,8.64455
3515.62,8.63275
3520.51,8.62098
3525.39,8.60925
3530.27,8.59756
3535.16,8.58591
3540.04,8.57429
3544.92,8.56272
3549.8,8.55118
3554.69,8.53968
3559.57,8.52822
3564.45,8.5168
3569.34,8.50541
3574.22,8.49406
3579.1,8.48275
3583.98,8.47147
3588.87,8.46023
3593.75,8.44903
3598.63,8.43786
3603.52,8.42673
3608.4,8.41564
3613.28,8.40458
3618.16,8.39356
3623.05,8.38257
3627.93,8.37162
3632.81,8.3607
3637.7,8.34982
3642.58,8.33897
3647.46,8.32816
3652.34,8.31738
3657.23,8.30663
3662.11,8.29592
3666.99,8.28525
3671.88,8.27461
3676.76,8.264
3681.64,8.25342
3686.52,8.24288
3691.41,8.23237
3696.29,8.2219
3701.17,8.21145
3706.05,8.20104
3710.94,8.19067
3715.82,8.18032
3720.7,8.17001
3725.59,8.15973
3730.47,8.14948
3735.35,8.13926
3740.23,8.12908
3745.12,8.11893
3750,8.10881
3754.88,8.09872
3759.77,8.08866
3764.65,8.07863
3769.53,8.06863
3774.41,8.05867
3779.3,8.04873
3784.18,8.03883
3789.06,8.02895
3793.95,8.01911
3798.83,8.00929
3803.71,7.99951
3808.59,7.98975
3813.48,7.98003
3818.36,7.97033
3823.24,7.96067
3828.12,7.95103
3833.01,7.94143
3837.89,7.93185
3842.77,7.9223
3847.66,7.91278
3852.54,7.90329
3857.42,7.89382
3862.3,7.88439
3867.19,7.87498
3872.07,7.8656
3876.95,7.85626
3881.84,7.84693
3886.72,7.83764
3891.6,7.82837
3896.48,7.81913
3901.37,7.80992
3906.25,7.80074
3911.13,7.79158
3916.02,7.78245
3920.9,7.77335
3925.78,7.76428
3930.66,7.75523
3935.55,7.74621
3940.43,7.73721
3945.31,7.72824
3950.2,7.7193
3955.08,7.71039
3959.96,7.7015
3964.84,7.69263
3969.73,7.68379
3974.61,7.67498
3979.49,7.6662
3984.38,7.65744
3989.26,7.6487
3994.14,7.63999
3999.02,7.63131
4003.91,7.62265
4008.79,7.61401
4013.67,7.6054
4018.55,7.59682
4023.44,7.58826
4028.32,7.57973
4033.2,7.57122
4038.09,7.56273
4042.97,7.55427
4047.85,7.54583
4052.73,7.53742
4057.62,7.52903
4062.5,7.52067
4067.38,7.51233
4072.27,7.50401
4077.15,7.49572
4082.03,7.48745
4086.91,7.4792
4091.8,7.47098
4096.68,7.46278
4101.56,7.45461
4106.45,7.44646
4111.33,7.43833
4116.21,7.43022
4121.09,7.42214
4125.98,7.41408
4130.86,7.40604
4135.74,7.39802
4140.62,7.39003
4145.51,7.38206
4150.39,7.37411
4155.27,7.36619
4160.16,7.35828
4165.04,7.3504
4169.92,7.34254
4174.8,7.3347
4179.69,7.32689
4184.57,7.31909
4189.45,7.31132
4194.34,7.30357
4199.22,7.29584
4204.1,7.28814
4208.98,7.28045
4213.87,7.27278
4218.75,7.26514
4223.63,7.25752
4228.52,7.24992
4233.4,7.24234
4238.28,7.23478
4243.16,7.22724
4248.05,7.21972
4252.93,7.21222
4257.81,7.20474
4262.7,7.19729
4267.58,7.18985
4272.46,7.18244
4277.34,7.17504
4282.23,7.16767
4287.11,7.16031
4291.99,7.15297
4296.88,7.14566
4301.76,7.13836
4306.64,7.13109
4311.52,7.12383
4316.41,7.1166
4321.29,7.10938
4326.17,7.10218
4331.05,7.095
4335.94,7.08785
4340.82,7.08071
4345.7,7.07359
4350.59,7.06649
4355.47,7.05941
4360.35,7.05234
4365.23,7.0453
4370.12,7.03827
4375,7.03127
4379.88,7.02428
4384.77,7.01731
4389.65,7.01036
4394.53,7.00343
4399.41,6.99652
4404.3,6.98962
4409.18,6.98275
4414.06,6.97589
4418.95,6.96905
4423.83,6.96223
4428.71,6.95542
4433.59,6.94864
4438.48,6.94187
4443.36,6.93512
4448.24,6.92839
4453.12,6.92168
4458.01,6.91498
4462.89,6.9083
4467.77,6.90164
4472.66,6.895
4477.54,6.88837
4482.42,6.88176
4487.3,6.87517
4492.19,6.8686
4497.07,6.86204
4501.95,6.8555
4506.84,6.84898
4511.72,6.84247
4516.6,6.83598
4521.48,6.82951
4526.37,6.82305
4531.25,6.81661
4536.13,6.81019
4541.02,6.80379
4545.9,6.7974
4550.78,6.79103
4555.66,6.78467
4560.55,6.77833
4565.43,6.77201
4570.31,6.7657
4575.2,6.75941
4580.08,6.75314
4584.96,6.74688
4589.84,6.74064
4594.73,6.73442
4599.61,6.72821
4604.49,6.72201
4609.38,6.71584
4614.26,6.70967
4619.14,6.70353
4624.02,6.6974
4628.91,6.69128
4633.79,6.68518
4638.67,6.6791
4643.55,6.67303
4648.44,6.66698
4653.32,6.66094
4658.2,6.65492
4663.09,6.64891
4667.97,6.64292
4672.85,6.63695
4677.73,6.63099
4682.62,6.62504
4687.5,6.61911
4692.38,6.61319
4697.27,6.60729
4702.15,6.60141
4707.03,6.59554
4711.91,6.58968
4716.8,6.58384
4721.68,6.57801
4726.56,6.5722
4731.45,6.5664
4736.33,6.56062
4741.21,6.55485
4746.09,6.5491
4750.98,6.54336
4755.86,6.53763
4760.74,6.53192
4765.62,6.52623
4770.51,6.52054
4775.39,6.51488
4780.27,6.50922
4785.16,6.50358
4790.04,6.49796
4794.92,6.49234
4799.8,6.48675
4804.69,6.48116
4809.57,6.47559
4814.45,6.47003
4819.34,6.46449
4824.22,6.45896
4829.1,6.45345
4833.98,6.44795
4838.87,6.44246
4843.75,6.43698
4848.63,6.43152
4853.52,6.42608
4858.4,6.42064
4863.28,6.41522
4868.16,6.40981
4873.05,6.40442
4877.93,6.39904
4882.81,6.39367
4887.7,6.38832
4892.58,6.38298
4897.46,6.37765
4902.34,6.37233
4907.23,6.36703
4912.11,6.36174
4916.99,6.35647
4921.88,6.3512
4926.76,6.34595
4931.64,6.34072
4936.52,6.33549
4941.41,6.33028
4946.29,6.32508
4951.17,6.31989
4956.05,6.31472
4960.94,6.30956
4965.82,6.30441
4970.7,6.29927
4975.59,6.29415
4980.47,6.28904
4985.35,6.28394
4990.23,6.27885
4995.12,6.27378
5000,6.26871
5004.88,6.26366
5009.77,6.25863
5014.65,6.2536
5019.53,6.24859
5024.41,6.24359
5029.3,6.2386
5034.18,6.23362
5039.06,6.22865
5043.95,6.2237
5048.83,6.21876
5053.71,6.21383
5058.59,6.20891
5063.48,6.204
5068.36,6.19911
5073.24,6.19423
5078.12,6.18936
5083.01,6.1845
5087.89,6.17965
5092.77,6.17481
5097.66,6.16999
5102.54,6.16518
5107.42,6.16037
5112.3,6.15558
5117.19,6.1508
5122.07,6.14604
5126.95,6.14128
5131.84,6.13654
5136.72,6.1318
5141.6,6.12708
5146.48,6.12237
5151.37,6.11767
5156.25,6.11298
5161.13,6.1083
5166.02,6.10364
5170.9,6.09898
5175.78,6.09434
5180.66,6.0897
5185.55,6.08508
5190.43,6.08047
5195.31,6.07587
5200.2,6.07128
5205.08,6.0667
5209.96,6.06213
5214.84,6.05757
5219.73,6.05303
5224.61,6.04849
5229.49,6.04397
5234.38,6.03945
5239.26,6.03495
5244.14,6.03045
5249.02,6.02597
5253.91,6.0215
5258.79,6.01704
5263.67,6.01259
5268.55,6.00814
5273.44,6.00371
5278.32,5.99929
5283.2,5.99488
5288.09,5.99048
5292.97,5.98609
5297.85,5.98172
5302.73,5.97735
5307.62,5.97299
5312.5,5.96864
5317.38,5.9643
5322.27,5.95997
5327.15,5.95565
5332.03,5.95135
5336.91,5.94705
5341.8,5.94276
5346.68,5.93848
5351.56,5.93421
5356.45,5.92995
5361.33,5.92571
5366.21,5.92147
5371.09,5.91724
5375.98,5.91302
5380.86,5.90881
5385.74,5.90461
5390.62,5.90042
5395.51,5.89624
5400.39,5.89207
5405.27,5.88791
5410.16,5.88376
5415.04,5.87962
5419.92,5.87548
5424.8,5.87136
5429.69,5.86725
5434.57,5.86315
5439.45,5.85905
5444.34,5.85497
5449.22,5.85089
5454.1,5.84683
5458.98,5.84277
5463.87,5.83872
5468.75,5.83469
5473.63,5.83066
5478.52,5.82664
5483.4,5.82263
5488.28,5.81863
5493.16,5.81463
5498.05,5.81065
5502.93,5.80668
5507.81,5.80271
5512.7,5.79876
5517.58,5.79481
5522.46,5.79088
5527.34,5.78695
5532.23,5.78303
5537.11,5.77912
5541.99,5.77522
5546.88,5.77132
5551.76,5.76744
5556.64,5.76357
5561.52,5.7597
5566.41,5.75584
5571.29,5.752
5576.17,5.74816
5581.05,5.74433
5585.94,5.7405
5590.82,5.73669
5595.7,5.73289
5600.59,5.72909
5605.47,5.7253
5610.35,5.72153
5615.23,5.71776
5620.12,5.71399
5625,5.71024
5629.88,5.7065
5634.77,5.70276
5639.65,5.69903
5644.53,5.69531
5649.41,5.6916
5654.3,5.6879
5659.18,5.68421
5664.06,5.68052
5668.95,5.67685
5673.83,5.67318
5678.71,5.66952
5683.59,5.66587
5688.48,5.66222
5693.36,5.65859
5698.24,5.65496
5703.12,5.65134
5708.01,5.64773
5712.89,5.64413
5717.77,5.64053
5722.66,5.63695
5727.54,5.63337
5732.42,5.6298
5737.3,5.62623
5742.19,5.62268
5747.07,5.61913
5751.95,5.6156
5756.84,5.61207
5761.72,5.60854
5766.6,5.60503
5771.48,5.60152
5776.37,5.59802
5781.25,5.59453
5786.13,5.59105
5791.02,5.58758
5795.9,5.58411
5800.78,5.58065
5805.66,5.5772
5810.55,5.57375
5815.43,5.57032
5820.31,5.56689
5825.2,5.56347
5830.08,5.56006
5834.96,5.55665
5839.84,5.55325
5844.73,5.54986
5849.61,5.54648
5854.49,5.54311
5859.38,5.53974
5864.26,5.53638
5869.14,5.53303
5874.02,5.52968
5878.91,5.52634
5883.79,5.52302
5888.67,5.51969
5893.55,5.51638
5898.44,5.51307
5903.32,5.50977
5908.2,5.50648
5913.09,5.50319
5917.97,5.49992
5922.85,5.49664
5927.73,5.49338
5932.62,5.49013
5937.5,5.48688
5942.38,5.48364
5947.27,5.4804
5952.15,5.47718
5957.03,5.47396
5961.91,5.47074
5966.8,5.46754
5971.68,5.46434
5976.56,5.46115
5981.45,5.45796
5986.33,5.45479
5991.21,5.45162
5996.09,5.44846
6000.98,5.4453
6005.86,5.44215
6010.74,5.43901
6015.62,5.43588
6020.51,5.43275
6025.39,5.42963
6030.27,5.42652
6035.16,5.42341
6040.04,5.42031
6044.92,5.41722
6049.8,5.41413
6054.69,5.41105
6059.57,5.40798
6064.45,5.40491
6069.34,5.40186
6074.22,5.3988
6079.1,5.39576
6083.98,5.39272
6088.87,5.38969
6093.75,5.38667
6098.63,5.38365
6103.52,5.38064
6108.4,5.37763
6113.28,5.37464
6118.16,5.37165
6123.05,5.36866
6127.93,5.36568
6132.81,5.36271
6137.7,5.35975
6142.58,5.35679
6147.46,5.35384
6152.34,5.3509
6157.23,5.34796
6162.11,5.34503
6166.99,5.3421
6171.88,5.33918
