FFT of Input Signal
Index,Real,Imag,Mag,Phase
0,66.5234,0,66.5234,0
1,66.5305,0.594243,66.5331,0.00893165
2,66.5516,1.18885,66.5622,0.0178617
3,66.5869,1.7842,66.6108,0.0267886
4,66.6364,2.38065,66.6789,0.0357108
5,66.7001,2.97857,66.7666,0.0446266
6,66.7782,3.57835,66.874,0.0535345
7,66.8707,4.18036,67.0012,0.0624329
8,66.9778,4.78499,67.1485,0.0713202
9,67.0997,5.39261,67.316,0.0801948
10,67.2365,6.00364,67.504,0.0890553
11,67.3884,6.61847,67.7126,0.0978999
12,67.5556,7.23752,67.9422,0.106727
13,67.7385,7.8612,68.1931,0.115535
14,67.9372,8.48995,68.4656,0.124323
15,68.152,9.12421,68.7601,0.133089
16,68.3834,9.76444,69.077,0.141831
17,68.6316,10.4111,69.4168,0.150548
18,68.8971,11.0647,69.7799,0.159238
19,69.1802,11.7257,70.1669,0.167899
20,69.4814,12.3946,70.5783,0.176531
21,69.8012,13.0721,71.0147,0.185131
22,70.1402,13.7585,71.4769,0.193698
23,70.4988,14.4546,71.9654,0.202231
24,70.8778,15.1609,72.4811,0.210727
25,71.2777,15.8781,73.0248,0.219185
26,71.6992,16.6068,73.5973,0.227604
27,72.1432,17.3477,74.1996,0.235982
28,72.6104,18.1016,74.8327,0.244318
29,73.1017,18.8692,75.4977,0.252608
30,73.618,19.6513,76.1957,0.260853
31,74.1604,20.4487,76.928,0.269051
32,74.7299,21.2625,77.6959,0.277199
33,75.3277,22.0934,78.5009,0.285296
34,75.9551,22.9425,79.3444,0.29334
35,76.6133,23.8109,80.2282,0.301329
36,77.3039,24.6997,81.1539,0.309262
37,78.0283,25.6101,82.1236,0.317137
38,78.7883,26.5433,83.1393,0.324951
39,79.5858,27.5007,84.2032,0.332703
40,80.4226,28.4838,85.3178,0.340391
41,81.3009,29.4941,86.4855,0.348012
42,82.2231,30.5333,87.7093,0.355564
43,83.1916,31.6031,88.9921,0.363045
44,84.2091,32.7054,90.3373,0.370452
45,85.2787,33.8424,91.7484,0.377784
46,86.4035,35.0162,93.2293,0.385036
47,87.5872,36.2293,94.7844,0.392207
48,88.8335,37.4842,96.4182,0.399293
49,90.1468,38.7837,98.1357,0.406291
50,91.5317,40.1309,99.9427,0.413197
51,92.9932,41.5292,101.845,0.420008
52,94.5372,42.9821,103.85,0.426721
53,96.1698,44.4936,105.964,0.433329
54,97.898,46.0681,108.196,0.43983
55,99.7295,47.7105,110.554,0.446218
56,101.673,49.4259,113.05,0.452487
57,103.738,51.2202,115.694,0.458632
58,105.935,53.0999,118.499,0.464645
59,108.277,55.0721,121.478,0.470521
60,110.778,57.145,124.648,0.47625
61,113.452,59.3275,128.028,0.481824
62,116.318,61.6297,131.636,0.487233
63,119.396,64.063,135.497,0.492466
64,122.709,66.6404,139.637,0.497512
65,126.285,69.3766,144.087,0.502356
66,130.155,72.2884,148.882,0.506982
67,134.355,75.3954,154.064,0.511374
68,138.93,78.72,159.682,0.515511
69,143.93,82.2884,165.793,0.51937
70,149.417,86.1316,172.465,0.522925
71,155.464,90.2859,179.779,0.526145
72,162.162,94.7951,187.837,0.528996
73,169.621,99.7117,196.758,0.531437
74,177.98,105.1,206.695,0.533418
75,187.41,111.039,217.835,0.534883
76,198.135,117.63,230.421,0.535763
77,210.442,124.997,244.765,0.535977
78,224.715,133.307,261.28,0.535425
79,241.472,142.778,280.525,0.533985
80,261.434,153.709,303.272,0.531509
81,285.636,166.519,330.631,0.527808
82,315.621,181.823,364.247,0.522645
83,353.789,200.559,406.682,0.515716
84,404.105,224.252,462.158,0.506625
85,473.62,255.579,538.179,0.494845
86,576.224,299.744,649.523,0.479667
87,743.616,368.522,829.924,0.460107
88,1067.45,495.735,1176.95,0.434772
89,1968.89,836.226,2139.11,0.401634
90,18907.2,7065.96,20184.4,0.357646
91,-2294.22,-704.873,2400.06,-2.84351
92,-1030.65,-225.52,1055.03,-2.92617
93,-637.054,-62.3074,640.094,-3.0441
94,-440.802,32.8807,442.027,3.06714
95,-319.108,106.916,336.543,2.8183
96,-231.737,177.487,291.897,2.488
97,-160.4,256.384,302.425,2.12984
98,-93.4276,357.583,369.587,1.82636
99,-18.5879,506.668,507.009,1.60747
100,87.5209,768.479,773.447,1.4574
101,306.617,1389.98,1423.39,1.35368
102,1520.27,5081.34,5303.89,1.28009
103,-1260.02,-3512.55,3731.71,-1.91522
104,-549.798,-1358.38,1465.42,-1.95539
105,-378.467,-858.451,938.176,-1.98603
106,-297.97,-634.605,701.077,-2.00978
107,-249.676,-507.011,565.153,-2.02838
108,-216.722,-424.249,476.399,-2.04308
109,-192.394,-366.036,413.519,-2.05473
110,-173.468,-322.749,366.412,-2.06397
111,-158.187,-289.227,329.66,-2.07128
112,-145.507,-262.454,300.091,-2.07702
113,-134.761,-240.547,275.723,-2.08146
114,-125.504,-222.265,255.251,-2.08482
115,-117.421,-206.762,237.778,-2.08728
116,-110.286,-193.437,222.667,-2.08897
117,-103.929,-181.851,209.454,-2.09
118,-98.2222,-171.677,197.789,-2.09047
119,-93.0638,-162.667,187.407,-2.09046
120,-88.374,-154.628,178.1,-2.09002
121,-84.0883,-147.406,169.704,-2.08921
122,-80.1542,-140.88,162.086,-2.08807
123,-76.5279,-134.952,155.141,-2.08665
124,-73.1734,-129.542,148.78,-2.08498
125,-70.0598,-124.581,142.93,-2.08308
126,-67.1612,-120.016,137.53,-2.08098
127,-64.4554,-115.799,132.529,-2.0787
128,-61.9231,-111.891,127.883,-2.07626
129,-59.5476,-108.258,123.554,-2.07368
130,-57.3144,-104.871,119.511,-2.07097
131,-55.2108,-101.705,115.724,-2.06814
132,-53.2254,-98.7384,112.17,-2.0652
133,-51.3485,-95.9525,108.828,-2.06216
134,-49.5711,-93.3306,105.678,-2.05904
135,-47.8853,-90.8581,102.704,-2.05584
136,-46.284,-88.522,99.8917,-2.05256
137,-44.761,-86.3108,97.2271,-2.04922
138,-43.3105,-84.2145,94.6989,-2.04581
139,-41.9273,-82.2239,92.2966,-2.04235
140,-40.6068,-80.3308,90.0108,-2.03883
141,-39.3446,-78.5278,87.8329,-2.03527
142,-38.1369,-76.8084,85.7552,-2.03166
143,-36.9801,-75.1666,83.7708,-2.028
144,-35.8711,-73.5968,81.8732,-2.02431
145,-34.8067,-72.0942,80.0568,-2.02059
146,-33.7844,-70.6543,78.3162,-2.01682
147,-32.8014,-69.273,76.6465,-2.01303
148,-31.8557,-67.9465,75.0434,-2.0092
149,-30.9448,-66.6714,73.5028,-2.00535
150,-30.067,-65.4444,72.0208,-2.00146
151,-29.2203,-64.2628,70.5941,-1.99755
152,-28.403,-63.1237,69.2195,-1.99361
153,-27.6135,-62.0248,67.8939,-1.98965
154,-26.8503,-60.9636,66.6146,-1.98567
155,-26.1121,-59.9382,65.3791,-1.98165
156,-25.3975,-58.9464,64.185,-1.97762
157,-24.7054,-57.9865,63.0301,-1.97356
158,-24.0345,-57.0568,61.9123,-1.96948
159,-23.3838,-56.1556,60.8297,-1.96537
160,-22.7523,-55.2814,59.7805,-1.96124
161,-22.1391,-54.4329,58.7629,-1.95708
162,-21.5432,-53.6087,57.7755,-1.95291
163,-20.9639,-52.8077,56.8167,-1.9487
164,-20.4003,-52.0286,55.8851,-1.94447
165,-19.8516,-51.2704,54.9794,-1.94021
166,-19.3172,-50.532,54.0984,-1.93593
167,-18.7964,-49.8125,53.2409,-1.93162
168,-18.2885,-49.111,52.4057,-1.92728
169,-17.7929,-48.4266,51.5918,-1.92291
170,-17.3091,-47.7584,50.7983,-1.9185
171,-16.8364,-47.1058,50.0242,-1.91406
172,-16.3744,-46.4679,49.2685,-1.90959
173,-15.9225,-45.8441,48.5305,-1.90508
174,-15.4803,-45.2337,47.8092,-1.90053
175,-15.0472,-44.636,47.104,-1.89594
176,-14.6229,-44.0504,46.4141,-1.89131
177,-14.2069,-43.4764,45.7388,-1.88663
178,-13.7987,-42.9134,45.0774,-1.8819
179,-13.398,-42.3608,44.4291,-1.87712
180,-13.0044,-41.8182,43.7936,-1.87229
181,-12.6175,-41.2849,43.17,-1.8674
182,-12.2368,-40.7606,42.5578,-1.86245
183,-11.8621,-40.2447,41.9564,-1.85743
184,-11.493,-39.7367,41.3654,-1.85234
185,-11.129,-39.2363,40.7841,-1.84718
186,-10.77,-38.7429,40.212,-1.84194
187,-10.4155,-38.2562,39.6487,-1.83661
188,-10.0652,-37.7757,39.0936,-1.83119
189,-9.71869,-37.301,38.5463,-1.82568
190,-9.3757,-36.8316,38.0062,-1.82006
191,-9.03587,-36.3671,37.4729,-1.81433
192,-8.69885,-35.9072,36.9459,-1.80848
193,-8.36429,-35.4514,36.4247,-1.8025
194,-8.03184,-34.9992,35.9089,-1.79638
195,-7.70112,-34.5502,35.3981,-1.79011
196,-7.37178,-34.104,34.8917,-1.78368
197,-7.04341,-33.6602,34.3892,-1.77707
198,-6.71564,-33.2183,33.8903,-1.77027
199,-6.38803,-32.7777,33.3944,-1.76327
200,-6.06018,-32.3381,32.901,-1.75605
201,-5.73161,-31.8988,32.4097,-1.74858
202,-5.40186,-31.4594,31.9198,-1.74085
203,-5.07042,-31.0193,31.431,-1.73282
204,-4.73675,-30.5779,30.9426,-1.72448
205,-4.40029,-30.1345,30.4541,-1.71579
206,-4.06041,-29.6885,29.9648,-1.70672
207,-3.71646,-29.2391,29.4743,-1.69722
208,-3.3677,-28.7855,28.9818,-1.68726
209,-3.01337,-28.3269,28.4867,-1.67678
210,-2.6526,-27.8624,27.9883,-1.66571
211,-2.28445,-27.3908,27.4859,-1.65401
212,-1.90789,-26.9112,26.9787,-1.64157
213,-1.52176,-26.4222,26.466,-1.62833
214,-1.12478,-25.9225,25.9469,-1.61416
215,-0.715518,-25.4105,25.4205,-1.59895
216,-0.292351,-24.8844,24.8861,-1.58254
217,0.146545,-24.3424,24.3428,-1.56478
218,0.603248,-23.7821,23.7898,-1.54544
219,1.08013,-23.2011,23.2263,-1.52427
220,1.57993,-22.5964,22.6516,-1.50099
221,2.10581,-21.9646,22.0654,-1.47522
222,2.66143,-21.3019,21.4675,-1.4465
223,3.25112,-20.6035,20.8584,-1.41429
224,3.87996,-19.864,20.2394,-1.3779
225,4.55402,-19.0771,19.6131,-1.33647
226,5.28057,-18.2349,18.9841,-1.28892
227,6.06841,-17.328,18.3599,-1.23394
228,6.92833,-16.345,17.7528,-1.16987
229,7.87367,-15.2716,17.1819,-1.09477
230,8.92113,-14.0901,16.6768,-1.00636
231,10.092,-12.7777,16.2824,-0.9023
232,11.4135,-11.3054,16.0649,-0.78064
233,12.9217,-9.63485,16.1184,-0.6407
234,14.6648,-7.71477,16.5703,-0.484289
235,16.7087,-5.47481,17.5828,-0.316638
236,19.1466,-2.81585,19.3526,-0.146021
237,22.1141,0.406506,22.1178,0.0183801
238,25.8165,4.41103,26.1906,0.169227
239,30.5809,9.54593,32.0361,0.302569
240,36.9612,16.4012,40.4367,0.417636
241,45.9771,26.0625,52.8502,0.515694
242,59.7326,40.7705,72.3202,0.598919
243,83.3812,66.0132,106.349,0.669662
244,133.789,119.751,179.555,0.730087
245,316.59,314.473,446.232,0.782043
246,-1023.15,-1112.15,1511.2,-2.31454
247,-201.868,-237.513,311.71,-2.27525
248,-113.791,-143.664,183.269,-2.24068
249,-80.0275,-107.652,134.139,-2.21005
250,-62.1487,-88.5564,108.188,-2.18273
251,-51.061,-76.6933,92.1362,-2.15819
252,-43.5001,-68.5862,81.2177,-2.13601
253,-38.0052,-62.6794,73.3015,-2.11587
254,-33.8245,-58.1726,67.2915,-2.09746
255,-30.5317,-54.6117,62.5669,-2.08058
256,-27.867,-51.72,58.7497,-2.065
257,-25.663,-49.3193,55.5966,-2.05059
258,-23.8071,-47.2896,52.9442,-2.03719
259,-22.2206,-45.5473,50.6785,-2.02468
260,-20.8471,-44.032,48.7177,-2.01298
261,-19.6447,-42.6994,47.0016,-2.00199
262,-18.5821,-41.5159,45.4847,-1.99164
263,-17.635,-40.4558,44.1324,-1.98187
264,-16.7847,-39.4991,42.9174,-1.97261
265,-16.0161,-38.6298,41.8184,-1.96383
266,-15.3173,-37.8352,40.8182,-1.95547
267,-14.6786,-37.1048,39.9028,-1.9475
268,-14.092,-36.4302,39.0608,-1.93989
269,-13.5508,-35.8044,38.2828,-1.9326
270,-13.0495,-35.2213,37.561,-1.92562
271,-12.5835,-34.6761,36.8887,-1.9189
272,-12.1488,-34.1646,36.2603,-1.91245
273,-11.742,-33.6831,35.6711,-1.90623
274,-11.3603,-33.2286,35.1169,-1.90022
275,-11.0012,-32.7985,34.5943,-1.89442
276,-10.6624,-32.3903,34.1001,-1.88881
277,-10.3422,-32.0021,33.6318,-1.88337
278,-10.0387,-31.6322,33.1869,-1.8781
279,-9.75068,-31.2788,32.7634,-1.87298
280,-9.4767,-30.9408,32.3596,-1.86801
281,-9.21566,-30.6168,31.9737,-1.86317
282,-8.96652,-30.3058,31.6044,-1.85846
283,-8.72838,-30.0067,31.2504,-1.85387
284,-8.50042,-29.7188,30.9106,-1.84939
285,-8.28191,-29.4412,30.5839,-1.84501
286,-8.07217,-29.1732,30.2693,-1.84074
287,-7.87061,-28.9141,29.9662,-1.83656
288,-7.67668,-28.6635,29.6737,-1.83248
289,-7.4899,-28.4207,29.391,-1.82847
290,-7.3098,-28.1852,29.1177,-1.82455
291,-7.13598,-27.9568,28.8531,-1.82071
292,-6.96806,-27.7348,28.5967,-1.81694
293,-6.80569,-27.519,28.3481,-1.81324
294,-6.64856,-27.309,28.1067,-1.80961
295,-6.49638,-27.1045,27.8722,-1.80604
296,-6.34887,-26.9053,27.6442,-1.80253
297,-6.20579,-26.7109,27.4224,-1.79908
298,-6.06691,-26.5213,27.2064,-1.79568
299,-5.932,-26.3362,26.996,-1.79234
300,-5.80089,-26.1553,26.7909,-1.78905
301,-5.67337,-25.9785,26.5907,-1.78581
302,-5.54927,-25.8055,26.3954,-1.78261
303,-5.42845,-25.6362,26.2047,-1.77946
304,-5.31074,-25.4705,26.0183,-1.77636
305,-5.19602,-25.3082,25.8361,-1.77329
306,-5.08414,-25.1491,25.6579,-1.77027
307,-4.97498,-24.9931,25.4835,-1.76728
308,-4.86843,-24.8402,25.3127,-1.76433
309,-4.76438,-24.69,25.1455,-1.76142
310,-4.66273,-24.5427,24.9817,-1.75854
311,-4.56339,-24.398,24.8211,-1.7557
312,-4.46626,-24.2558,24.6636,-1.75289
313,-4.37125,-24.1162,24.5091,-1.75011
314,-4.27829,-23.9789,24.3576,-1.74736
315,-4.1873,-23.8439,24.2088,-1.74464
316,-4.09822,-23.7111,24.0627,-1.74194
317,-4.01096,-23.5805,23.9192,-1.73928
318,-3.92546,-23.4519,23.7782,-1.73664
319,-3.84167,-23.3253,23.6396,-1.73403
320,-3.75953,-23.2007,23.5033,-1.73144
321,-3.67898,-23.078,23.3694,-1.72888
322,-3.59996,-22.9571,23.2376,-1.72634
323,-3.52243,-22.8379,23.108,-1.72383
324,-3.44635,-22.7205,22.9804,-1.72133
325,-3.37165,-22.6047,22.8548,-1.71886
326,-3.29831,-22.4906,22.7311,-1.71641
327,-3.22628,-22.378,22.6093,-1.71398
328,-3.15551,-22.2669,22.4894,-1.71157
329,-3.08598,-22.1573,22.3712,-1.70918
330,-3.01765,-22.0492,22.2548,-1.70681
331,-2.95047,-21.9425,22.14,-1.70446
332,-2.88443,-21.8372,22.0268,-1.70212
333,-2.81948,-21.7332,21.9153,-1.69981
334,-2.75559,-21.6305,21.8053,-1.69751
335,-2.69274,-21.529,21.6968,-1.69523
336,-2.6309,-21.4288,21.5897,-1.69296
337,-2.57004,-21.3298,21.4841,-1.69071
338,-2.51014,-21.232,21.3799,-1.68847
339,-2.45116,-21.1354,21.277,-1.68626
340,-2.3931,-21.0398,21.1755,-1.68405
341,-2.33591,-20.9454,21.0752,-1.68186
342,-2.27959,-20.852,20.9763,-1.67969
343,-2.22411,-20.7597,20.8785,-1.67753
344,-2.16945,-20.6684,20.782,-1.67538
345,-2.11558,-20.5781,20.6866,-1.67324
346,-2.0625,-20.4888,20.5924,-1.67112
347,-2.01018,-20.4005,20.4993,-1.66901
348,-1.9586,-20.3131,20.4073,-1.66692
349,-1.90775,-20.2266,20.3164,-1.66484
350,-1.85761,-20.141,20.2265,-1.66277
351,-1.80816,-20.0564,20.1377,-1.66071
352,-1.75939,-19.9725,20.0499,-1.65866
353,-1.71129,-19.8896,19.9631,-1.65662
354,-1.66383,-19.8074,19.8772,-1.6546
355,-1.61701,-19.7261,19.7923,-1.65259
356,-1.57081,-19.6456,19.7083,-1.65058
357,-1.52522,-19.5659,19.6252,-1.64859
358,-1.48022,-19.4869,19.543,-1.64661
359,-1.4358,-19.4087,19.4617,-1.64464
360,-1.39196,-19.3312,19.3813,-1.64268
361,-1.34867,-19.2545,19.3017,-1.64073
362,-1.30594,-19.1785,19.2229,-1.63879
363,-1.26374,-19.1032,19.1449,-1.63685
364,-1.22206,-19.0286,19.0678,-1.63493
365,-1.1809,-18.9546,18.9914,-1.63302
366,-1.14025,-18.8814,18.9158,-1.63111
367,-1.10009,-18.8088,18.8409,-1.62922
368,-1.06041,-18.7368,18.7668,-1.62733
369,-1.02122,-18.6655,18.6934,-1.62545
370,-0.98249,-18.5948,18.6207,-1.62358
371,-0.944222,-18.5247,18.5487,-1.62172
372,-0.906404,-18.4552,18.4775,-1.61987
373,-0.869028,-18.3863,18.4068,-1.61803
374,-0.832087,-18.318,18.3369,-1.61619
375,-0.795572,-18.2503,18.2676,-1.61436
376,-0.759476,-18.1831,18.199,-1.61254
377,-0.723792,-18.1165,18.131,-1.61073
378,-0.688511,-18.0505,18.0636,-1.60892
379,-0.653628,-17.985,17.9968,-1.60712
380,-0.619135,-17.92,17.9307,-1.60533
381,-0.585025,-17.8555,17.8651,-1.60355
382,-0.551291,-17.7916,17.8002,-1.60177
383,-0.517929,-17.7282,17.7358,-1.6
384,-0.48493,-17.6653,17.6719,-1.59824
385,-0.45229,-17.6029,17.6087,-1.59648
386,-0.420002,-17.5409,17.5459,-1.59474
387,-0.38806,-17.4795,17.4838,-1.59299
388,-0.356459,-17.4185,17.4221,-1.59126
389,-0.325193,-17.358,17.361,-1.58953
390,-0.294256,-17.2979,17.3004,-1.58781
391,-0.263645,-17.2383,17.2403,-1.58609
392,-0.233352,-17.1792,17.1808,-1.58438
393,-0.203374,-17.1205,17.1217,-1.58267
394,-0.173705,-17.0622,17.0631,-1.58098
395,-0.14434,-17.0044,17.005,-1.57928
396,-0.115275,-16.9469,16.9473,-1.5776
397,-0.0865054,-16.8899,16.8902,-1.57592
398,-0.0580264,-16.8334,16.8335,-1.57424
399,-0.0298335,-16.7772,16.7772,-1.57257
400,-0.00192249,-16.7214,16.7214,-1.57091
401,0.0257109,-16.6661,16.6661,-1.56925
402,0.0530707,-16.6111,16.6112,-1.5676
403,0.0801611,-16.5565,16.5567,-1.56595
404,0.106986,-16.5023,16.5026,-1.56431
405,0.133549,-16.4484,16.449,-1.56268
406,0.159855,-16.395,16.3958,-1.56105
407,0.185906,-16.3419,16.343,-1.55942
408,0.211707,-16.2892,16.2906,-1.5578
409,0.237261,-16.2368,16.2386,-1.55618
410,0.262572,-16.1848,16.1869,-1.55457
411,0.287643,-16.1332,16.1357,-1.55297
412,0.312478,-16.0819,16.0849,-1.55137
413,0.337079,-16.0309,16.0344,-1.54977
414,0.36145,-15.9803,15.9844,-1.54818
415,0.385595,-15.93,15.9346,-1.5466
416,0.409516,-15.88,15.8853,-1.54501
417,0.433216,-15.8304,15.8363,-1.54344
418,0.456699,-15.7811,15.7877,-1.54186
419,0.479967,-15.7321,15.7394,-1.5403
420,0.503023,-15.6834,15.6915,-1.53873
421,0.52587,-15.6351,15.6439,-1.53717
422,0.548511,-15.587,15.5967,-1.53562
423,0.570949,-15.5393,15.5497,-1.53407
424,0.593186,-15.4918,15.5032,-1.53252
425,0.615224,-15.4447,15.4569,-1.53098
426,0.637068,-15.3978,15.411,-1.52945
427,0.658718,-15.3513,15.3654,-1.52791
428,0.680177,-15.305,15.3201,-1.52638
429,0.701449,-15.259,15.2751,-1.52486
430,0.722535,-15.2133,15.2305,-1.52334
431,0.743437,-15.1679,15.1861,-1.52182
432,0.764159,-15.1228,15.1421,-1.52031
433,0.784702,-15.0779,15.0983,-1.5188
434,0.805068,-15.0333,15.0549,-1.5173
435,0.82526,-14.989,15.0117,-1.51579
436,0.84528,-14.9449,14.9688,-1.5143
437,0.865131,-14.9011,14.9262,-1.5128
438,0.884813,-14.8576,14.8839,-1.51131
439,0.904329,-14.8143,14.8419,-1.50983
440,0.923681,-14.7713,14.8001,-1.50835
441,0.942872,-14.7285,14.7587,-1.50687
442,0.961903,-14.686,14.7175,-1.50539
443,0.980776,-14.6437,14.6765,-1.50392
444,0.999493,-14.6017,14.6358,-1.50245
445,1.01806,-14.5599,14.5954,-1.50099
446,1.03647,-14.5183,14.5553,-1.49953
447,1.05473,-14.477,14.5154,-1.49807
448,1.07284,-14.4359,14.4758,-1.49662
449,1.0908,-14.3951,14.4364,-1.49517
450,1.10862,-14.3545,14.3972,-1.49372
451,1.12629,-14.3141,14.3583,-1.49227
452,1.14383,-14.2739,14.3197,-1.49083
453,1.16122,-14.234,14.2813,-1.4894
454,1.17847,-14.1943,14.2431,-1.48796
455,1.19559,-14.1548,14.2052,-1.48653
456,1.21257,-14.1155,14.1675,-1.4851
457,1.22942,-14.0765,14.13,-1.48368
458,1.24613,-14.0376,14.0928,-1.48226
459,1.26271,-13.999,14.0558,-1.48084
460,1.27917,-13.9605,14.019,-1.47942
461,1.29549,-13.9223,13.9825,-1.47801
462,1.31169,-13.8843,13.9461,-1.4766
463,1.32777,-13.8465,13.91,-1.4752
464,1.34371,-13.8089,13.8741,-1.47379
465,1.35954,-13.7715,13.8384,-1.47239
466,1.37525,-13.7343,13.803,-1.471
467,1.39083,-13.6973,13.7677,-1.4696
468,1.4063,-13.6605,13.7326,-1.46821
469,1.42165,-13.6238,13.6978,-1.46682
470,1.43688,-13.5874,13.6632,-1.46544
471,1.452,-13.5512,13.6287,-1.46405
472,1.46701,-13.5151,13.5945,-1.46267
473,1.4819,-13.4792,13.5604,-1.4613
474,1.49668,-13.4435,13.5266,-1.45992
475,1.51135,-13.408,13.493,-1.45855
476,1.52592,-13.3727,13.4595,-1.45718
477,1.54037,-13.3376,13.4262,-1.45581
478,1.55472,-13.3026,13.3932,-1.45445
479,1.56896,-13.2678,13.3603,-1.45309
480,1.5831,-13.2332,13.3276,-1.45173
481,1.59714,-13.1988,13.2951,-1.45038
482,1.61107,-13.1645,13.2627,-1.44902
483,1.6249,-13.1304,13.2306,-1.44767
484,1.63863,-13.0965,13.1986,-1.44632
485,1.65227,-13.0627,13.1668,-1.44498
486,1.6658,-13.0292,13.1352,-1.44363
487,1.67924,-12.9957,13.1038,-1.44229
488,1.69258,-12.9625,13.0725,-1.44096
489,1.70583,-12.9294,13.0414,-1.43962
490,1.71898,-12.8964,13.0105,-1.43829
491,1.73204,-12.8637,12.9797,-1.43696
492,1.745,-12.831,12.9492,-1.43563
493,1.75788,-12.7986,12.9187,-1.4343
494,1.77066,-12.7663,12.8885,-1.43298
495,1.78335,-12.7341,12.8584,-1.43166
496,1.79596,-12.7021,12.8285,-1.43034
497,1.80848,-12.6703,12.7987,-1.42902
498,1.82091,-12.6386,12.7691,-1.42771
499,1.83325,-12.607,12.7396,-1.42639
500,1.84551,-12.5756,12.7103,-1.42508
501,1.85769,-12.5444,12.6812,-1.42378
502,1.86978,-12.5133,12.6522,-1.42247
503,1.88179,-12.4823,12.6234,-1.42117
504,1.89371,-12.4515,12.5947,-1.41987
505,1.90556,-12.4209,12.5662,-1.41857
506,1.91732,-12.3903,12.5378,-1.41727
507,1.929,-12.3599,12.5096,-1.41598
508,1.94061,-12.3297,12.4815,-1.41468
509,1.95214,-12.2996,12.4535,-1.41339
510,1.96359,-12.2696,12.4257,-1.41211
511,1.97496,-12.2398,12.3981,-1.41082
512,1.98625,-12.2101,12.3706,-1.40954
513,1.99748,-12.1805,12.3432,-1.40825
514,2.00862,-12.1511,12.316,-1.40697
515,2.01969,-12.1218,12.2889,-1.4057
516,2.03069,-12.0926,12.2619,-1.40442
517,2.04162,-12.0635,12.2351,-1.40315
518,2.05247,-12.0346,12.2084,-1.40187
519,2.06326,-12.0058,12.1818,-1.4006
520,2.07397,-11.9772,12.1554,-1.39934
521,2.08461,-11.9487,12.1291,-1.39807
522,2.09518,-11.9203,12.103,-1.39681
523,2.10569,-11.892,12.077,-1.39554
524,2.11612,-11.8638,12.0511,-1.39428
525,2.12649,-11.8358,12.0253,-1.39303
526,2.1368,-11.8079,11.9997,-1.39177
